MD (m)	TVD (m)	TVDSS (m)	TWT ( ms )	Vint (m/s)
19	19	0	0	1500
19.19	19.19	0.19	3.27	116.2078171
19.21	19.21	0.21	3.74	85.1013336
26.51	26.51	7.51	979.74	14.959021
27.56	27.56	8.56	1119.74	15
29.92	29.92	10.92	1434.8100586	14.9807987
32.45	32.45	13.45	1435.74	5441.1401367
40.84	40.84	21.84	1438.8100586	5465.5913086
51.76	51.76	32.76	1442.8100586	5460.0698242
62.68	62.68	43.68	1446.8100586	5460.0722656
73.6	73.6	54.6	1450.8100586	5459.9047852
106.36	106.36	87.36	1462.8100586	5460.0166016
117.28	117.28	98.28	1466.8100586	5459.9082031
128.2	128.2	109.2	1470.8100586	5460.0664063
139.12	139.12	120.12	1474.8100586	5460.071289
150.04	150.04	131.04	1478.8100586	5459.9086914
182.8	182.8	163.8	1490.8100586	5460.0180664
193.72	193.72	174.72	1494.8100586	5459.9018555
204.64	204.64	185.64	1498.8100586	5460.0722656
226.48	226.48	207.48	1506.8100586	5459.9868164
237.4	237.4	218.4	1510.8100586	5460.0727539
248.32	248.3200226	229.3200226	1514.8100586	5459.9169922
259.24	259.24	240.24	1518.8100586	5460.056641
270.16	270.16	251.16	1522.8100586	5459.9169922
281.07	281.07	262.07	1526.8100586	5455.0751953
291.99	291.99	272.99	1530.8100586	5459.8935547
302.9200134	302.9200134	283.9200134	1534.8100586	5465.084961
313.84	313.84	294.84	1538.8100586	5460.0556641
324.76001	324.76001	305.76001	1542.8100586	5459.91748
335.68	335.68	316.68	1546.8100586	5460.0551758
346.6099854	346.6099854	327.6099854	1550.8100586	5464.9106445
357.53	357.53	338.53	1554.8100586	5460.0805664
368.4500122	368.4500122	349.4500122	1558.8100586	5459.90332
379.37	379.37	360.37	1562.8100586	5460.0693359
390.29	390.29	371.29	1566.8100586	5460.0810547
401.21	401.21	382.21	1570.8100586	5459.8911133
412.13	412.13	393.13	1574.8100586	5460.0810547
423.0499878	423.0500183	404.0500183	1578.8100586	5459.9077148
433.97	433.97	414.97	1582.8100586	5460.0639648
444.8900146	444.8900146	425.8900146	1586.8100586	5459.918457
455.81	455.8100281	436.8100281	1590.8100586	5460.070801
466.730011	466.730011	447.730011	1594.8100586	5460.0629883
477.65	477.65	458.65	1598.8100586	5459.9086914
488.57	488.57	469.57	1602.8100586	5460.0722656
499.49	499.49	480.49	1606.8100586	5459.8989258
510.41	510.41	491.41	1610.8100586	5460.0820313
521.3300171	521.3300171	502.3300171	1614.8100586	5459.90918
543.1699829	543.1699829	524.1699829	1622.8100586	5460.0615234
554.0900269	554.0900269	535.0900269	1626.8100586	5459.9296875
565.01001	565.01001	546.01001	1630.8100586	5460.0615234
575.93	575.93	556.93	1634.8100586	5459.8989258
586.8499756	586.8499756	567.8499756	1638.8100586	5460.0615234
597.77002	597.77002	578.77002	1642.8100586	5459.9296875
619.6099854	619.6099854	600.6099854	1650.8100586	5460.0615234
630.530029	630.530029	611.530029	1654.8100586	5459.9296875
641.4500122	641.4500122	622.4500122	1658.8100586	5460.0615234
652.37	652.37	633.37	1662.8100586	5459.8989258
663.289978	663.289978	644.289978	1666.8100586	5460.0615234
674.210022	674.210022	655.210022	1670.8100586	5459.9296875
696.0499878	696.0499878	677.0499878	1678.8100586	5460.0615234
706.969971	706.969971	687.969971	1682.8100586	5459.8989258
717.8900146	717.8900146	698.8900146	1686.8100586	5460.0922852
728.81	728.81	709.81	1690.8100586	5459.8989258
739.72998	739.72998	720.72998	1694.8100586	5460.0615234
750.6500244	750.6500244	731.6500244	1698.8100586	5459.9296875
761.57	761.57	742.57	1702.8100586	5460.0615234
772.49	772.49	753.49	1706.8100586	5459.8989258
783.4099731	783.4099731	764.4099731	1710.8100586	5460.0615234
794.3300171	794.3300171	775.3300171	1714.8100586	5460.0922852
805.25	805.25	786.25	1718.8100586	5459.8989258
816.1699829	816.1699829	797.1699829	1722.8100586	5460.0615234
827.0900269	827.0900269	808.0900269	1726.8100586	5459.9296875
838.01001	838.01001	819.01001	1730.8100586	5460.0615234
848.93	848.93	829.93	1734.8100586	5459.8989258
859.8499756	859.8499756	840.8499756	1738.8100586	5460.0615234
870.77002	870.77002	851.77002	1742.8100586	5460.0922852
881.69	881.69	862.69	1746.8100586	5459.8989258
892.6099854	892.6099854	873.6099854	1750.8100586	5460.0615234
903.530029	903.530029	884.530029	1754.8100586	5459.9296875
914.4500122	914.4500122	895.4500122	1758.8100586	5460.0615234
925.38	925.38	906.38	1762.8100586	5464.9038086
947.219971	947.219971	928.219971	1770.8100586	5460.0615234
958.1400146	958.1400146	939.1400146	1774.8100586	5459.9296875
969.06	969.06	950.06	1778.8100586	5460.0615234
979.97998	979.97998	960.97998	1782.8100586	5459.8989258
990.9	990.9	971.9	1786.8100586	5460.0922852
1001.82	1001.82	982.82	1790.8100586	5459.8989258
1023.6599731	1023.6599731	1004.6599731	1798.8100586	5460.0615234
1034.5799561	1034.5799561	1015.5799561	1802.8100586	5459.8989258
1045.5	1045.5	1026.5	1806.8100586	5460.0922852
1056.4200439	1056.4200439	1037.4200439	1810.8100586	5459.9296875
1067.3399658	1067.3399658	1048.3399658	1814.8100586	5460.03125
1078.26001	1078.26001	1059.26001	1818.8100586	5459.9296875
1089.1800537	1089.1800537	1070.1800537	1822.8100586	5460.0922852
1100.1	1100.1	1081.1	1826.8100586	5460.03125
1111.02002	1111.02002	1092.02002	1830.8100586	5459.9296875
1121.9399414	1121.9399414	1102.9399414	1834.8100586	5460.03125
1132.8599854	1132.8599854	1113.8599854	1838.8100586	5459.9296875
1143.780029	1143.780029	1124.780029	1842.8100586	5460.0922852
1154.7	1154.7	1135.7	1846.8100586	5459.8686523
1176.540039	1176.540039	1157.540039	1854.8100586	5460.0922852
1187.459961	1187.459961	1168.459961	1858.8100586	5459.8686523
1198.38	1198.38	1179.38	1862.8100586	5460.0922852
1209.3	1209.3	1190.3	1866.8100586	5459.9296875
1220.219971	1220.219971	1201.219971	1870.8100586	5460.03125
1231.1400146	1231.1400146	1212.1400146	1874.8100586	5459.9296875
1242.0600586	1242.0600586	1223.0600586	1878.8100586	5460.0922852
1252.97998	1252.97998	1233.97998	1882.8100586	5459.8686523
1263.9	1263.9	1244.9	1886.8100586	5460.0922852
1274.8199463	1274.8199463	1255.8199463	1890.8100586	5460.03125
1285.74	1285.74	1266.74	1894.8100586	5459.9296875
1296.6600342	1296.6600342	1277.6600342	1898.8100586	5460.0922852
1307.5799561	1307.5799561	1288.5799561	1902.8100586	5459.8686523
1318.5	1318.5	1299.5	1906.8100586	5460.0922852
1329.4200439	1329.4200439	1310.4200439	1910.8100586	5459.9296875
1340.3399658	1340.3399658	1321.3399658	1914.8100586	5460.03125
1351.26001	1351.26001	1332.26001	1918.8100586	5460.0922852
1362.1800537	1362.1800537	1343.1800537	1922.8100586	5459.9296875
1373.1	1373.1	1354.1	1926.8100586	5460.03125
1384.02002	1384.02002	1365.02002	1930.8100586	5459.9296875
1394.9399414	1394.9399414	1375.9399414	1934.8100586	5460.03125
1405.8599854	1405.8599854	1386.8599854	1938.8100586	5459.9296875
1416.780029	1416.780029	1397.780029	1942.8100586	5460.0922852
1427.7	1427.7	1408.7	1946.8100586	5460.03125
1438.62	1438.62	1419.62	1950.8100586	5459.9296875
1449.5500488	1449.5500488	1430.5500488	1954.8100586	5465.097168
1460.469971	1460.469971	1441.469971	1958.8100586	5459.8686523
1471.3900146	1471.3900146	1452.3900146	1962.8100586	5460.0922852
1482.3100586	1482.3100586	1463.3100586	1966.8100586	5459.9296875
1493.22998	1493.22998	1474.22998	1970.8100586	5460.03125
1504.1500244	1504.1500244	1485.1500244	1974.8100586	5460.0922852
1508.6899414	1508.6899414	1489.6899414	1978.8100586	2269.920166
1511.4200439	1511.4200439	1492.4200439	1981.219971	2265.6611328
1512.280029	1512.2799072	1493.2799072	1982.8100586	1081.5927734
1513.5600586	1513.5596924	1494.5596924	1985.219971	1062.1555176
1515.0699463	1515.069458	1496.069458	1988.030029	1074.4674072
1516.4200439	1516.4193115	1497.4193115	1989.219971	2268.8774414
1519.6099854	1519.6088867	1500.6088867	1992.040039	2262.063721
1522.3399658	1522.338501	1503.338501	1994.4399414	2274.7624512
1523.2	1523.1983643	1504.1983643	1996.040039	1074.82373
1524.47998	1524.4782715	1505.4782715	1998.4399414	1066.58728
1525.99	1525.9880371	1506.9880371	2001.26001	1070.73877
1527.3399658	1527.337891	1508.337891	2002.4399414	2287.9255371
1530.530029	1530.5274658	1511.5274658	2005.26001	2262.1501465
1533.26001	1533.25708	1514.25708	2007.6601563	2274.5366211
1535.0799561	1535.0767822	1516.0767822	2009.2598877	2274.9375
1537.8100586	1537.8065186	1518.8065186	2011.6601563	2274.6381836
1542.3499756	1542.3459473	1523.3459473	2015.6600342	2269.692627
1546.9	1546.8953857	1527.8953857	2019.6600342	2274.7580566
1547.8100586	1547.8052979	1528.8052979	2020.4798584	2219.5195313
1551.4399414	1551.4346924	1532.4346924	2023.6599121	2282.6289063
1552.3599854	1552.3546143	1533.3546143	2024.4798584	2243.9328613
1555.0899658	1555.0842285	1536.0842285	2026.88	2274.5366211
1556.9	1556.894043	1537.894043	2028.4801025	2262.2407227
1559.63	1559.6236572	1540.6236572	2030.88	2274.7624512
1562.3599854	1562.3532715	1543.3532715	2033.2901611	2265.0864258
1564.1800537	1564.1730957	1545.1730957	2034.8798828	2289.42041
1568.719971	1568.7125244	1549.7125244	2038.880127	2269.557373
1569.6400146	1569.6324463	1550.6324463	2039.6900635	2271.67627
1571.4499512	1571.4421387	1552.4421387	2041.290039	2262.0881348
1573.25	1573.2419434	1554.2419434	2042.88	2263.8986816
1574.1800537	1574.171875	1555.171875	2043.7	2268.3459473
1576.9200439	1576.911499	1557.911499	2046.0998535	2283.1030273
1577.780029	1577.7713623	1558.7713623	2047.7	1074.82373
1579.0699463	1579.0611572	1560.0611572	2050.1	1074.7194824
1580.6	1580.5909424	1561.5909424	2052.9399414	1077.4198
1581.9200439	1581.9107666	1562.9107666	2054.1	2275.4
1585.1400146	1585.1303711	1566.1303711	2056.9399414	2267.4470215
1587.87	1587.8599854	1568.8599854	2059.3400879	2274.5366211
1588.72998	1588.7197266	1569.7197266	2060.9399414	1074.5910645
1590.01001	1590	1571	2063.3400879	1066.209351
1591.52002	1591.508667	1572.508667	2066.1499023	1074.41687
1592.87	1592.8581543	1573.8581543	2067.3400879	2267.6394043
1596.0699463	1596.0568848	1577.0568848	2070.1599121	2268.7749023
1598.8	1598.7858887	1579.7858887	2072.5700684	2264.6101074
1599.6500244	1599.635498	1580.635498	2074.1599121	1068.8912354
1600.9399414	1600.9249268	1581.9249268	2076.5700684	1069.9814453
1602.4399414	1602.4243164	1583.4243164	2079.3798828	1067.2946777
1602.63	1602.61438	1583.61438	2080.5700684	319.2616577
1603.0699463	1603.0540771	1584.0540771	2083.3798828	313.0048523
1603.4499512	1603.43396	1584.43396	2085.790039	315.2126465
1603.5500488	1603.5340576	1584.5340576	2086.1899414	500.5108643
1603.6	1603.5839844	1584.5839844	2087.3798828	83.8819427
1603.63	1603.6140137	1584.6140137	2088.209961	72.3375549
1603.6600342	1603.644043	1584.644043	2089.780029	38.233681
1603.709961	1603.6938477	1584.6938477	2092.24	40.5751839
1603.8599854	1603.8438721	1584.8438721	2096.22998	75.1724854
1603.9	1603.8839111	1584.8839111	2098.3	38.6711235
1603.9300537	1603.91394	1584.91394	2100.22998	31.1064873
1604.0500488	1604.0338135	1585.0338135	2102.3500977	113.1583939
1604.0899658	1604.07373	1585.07373	2104.3601074	39.7009964
1604.2	1604.1837158	1585.1837158	2106.4	107.7920532
1604.280029	1604.2637939	1585.2637939	2110.4	40.0241623
1604.3100586	1604.2938232	1585.2938232	2112.4299316	29.5756416
1604.3499756	1604.3336182	1585.3336182	2114.4	40.5081787
1604.3900146	1604.3736572	1585.3736572	2116.459961	38.859108
1604.51001	1604.4936523	1585.4936523	2118.51001	117.01413
1604.540039	1604.5236816	1585.5236816	2120.52002	29.8668041
1604.5799561	1604.5635986	1585.5635986	2122.530029	39.7057037
1604.7	1604.6834717	1585.6834717	2124.5700684	117.5884628
1604.72998	1604.713501	1585.713501	2126.5800781	29.8703461
1604.77002	1604.75354	1585.75354	2128.5900879	39.822403
1604.8499756	1604.8334961	1585.8334961	2130.6201172	78.7481537
1604.8900146	1604.8735352	1585.8735352	2132.6298828	39.827129
1604.959961	1604.9434814	1585.9434814	2134.6599121	68.8815155
1605	1604.9833984	1585.9833984	2136.6699219	39.827129
1605.040039	1605.0234375	1586.0234375	2138.6799316	39.822403
1605.1899414	1605.17334	1586.17334	2138.77002	3325.3647461
1605.22998	1605.2133789	1586.2133789	2138.8400879	1141.9819336
1605.3100586	1605.293335	1586.293335	2138.9399414	1606.4243164
1605.5	1605.4832764	1586.4832764	2139.040039	3792.2155762
1605.530029	1605.5133057	1586.5133057	2139.1	999.2341919
1605.6099854	1605.59314	1586.59314	2139.2	1600.147461
1605.6899414	1605.6730957	1586.6730957	2139.27002	2280.4821777
1605.719971	1605.703125	1586.703125	2139.3200684	1199.0810547
1605.8	1605.7832031	1586.7832031	2139.3798828	2675.2404785
1605.8399658	1605.82312	1586.82312	2139.4399414	1328.2503662
1605.88	1605.863159	1586.863159	2139.49	1606.4243164
1605.9499512	1605.9329834	1586.9329834	2139.5900879	1396.4907227
1605.99	1605.9730225	1586.9730225	2139.6499023	1337.620239
1606.0699463	1606.0529785	1587.0529785	2139.76001	1451.2159424
1606.1099854	1606.0930176	1587.0930176	2139.8100586	1598.77478
1606.1800537	1606.1630859	1587.1630859	2139.8798828	2005.2890625
1606.219971	1606.2030029	1587.2030029	2139.9299316	1593.900391
1606.3	1606.282959	1587.282959	2140.040039	1456.584351
1606.37	1606.3529053	1587.3529053	2140.1	2327.484619
1606.4100342	1606.3929443	1587.3929443	2140.1499023	1606.4243164
1606.49	1606.4729	1587.4729	2140.219971	2280.4821777
1606.52002	1606.50293	1587.50293	2140.27002	1199.0810547
1606.719971	1606.7027588	1587.7027588	2140.3798828	3637.02002
1606.75	1606.7327881	1587.7327881	2140.4299316	1199.0810547
1606.8299561	1606.8127441	1587.8127441	2140.49	2660.5625
1606.87	1606.8526611	1587.8526611	2140.5500488	1332.3122559
1607.1700439	1607.15271	1588.15271	2140.709961	3755.258301
1607.209961	1607.1925049	1588.1925049	2140.76001	1593.900391
1607.47998	1607.4625244	1588.4625244	2140.8898926	4154.5249023
1607.52002	1607.5024414	1588.5024414	2140.9399414	1598.77478
1607.5899658	1607.5723877	1588.5723877	2141.01001	1994.9866943
1607.63	1607.6124268	1588.6124268	2141.0600586	1598.77478
1607.8199463	1607.8022461	1588.8022461	2141.1699219	3454.9470215
1607.8599854	1607.8422852	1588.8422852	2141.219971	1606.4243164
1607.9300537	1607.9123535	1588.9123535	2141.3200684	1398.9278564
1608.01001	1607.99231	1588.99231	2141.3798828	2671.1623535
1608.0500488	1608.0323486	1589.0323486	2141.4299316	1598.77478
1608.0899658	1608.0722656	1589.0722656	2141.5	1138.5002441
1608.12	1608.1022949	1589.1022949	2141.5500488	1199.0810547
1608.1600342	1608.1422119	1589.1422119	2141.6	1598.77478
1608.2	1608.1821289	1589.1821289	2141.6499023	1601.5267334
1608.24	1608.222168	1589.222168	2141.7	1598.77478
1608.3199463	1608.302124	1589.302124	2141.76001	2660.5625
1608.3499756	1608.3321533	1589.3321533	2141.8100586	1204.8182373
1608.4300537	1608.4122314	1589.4122314	2141.8798828	2291.7590332
1608.469971	1608.4520264	1589.4520264	2141.9299316	1593.900391
1608.51001	1608.4920654	1589.4920654	2141.97998	1598.77478
1608.72998	1608.7120361	1589.7120361	2142.1	3659.796875
1608.77002	1608.7519531	1589.7519531	2142.1599121	1337.620239
1608.8100586	1608.7919922	1589.7919922	2142.209961	1598.77478
1608.8499756	1608.831909	1589.831909	2142.26001	1593.900391
1608.959961	1608.9418945	1589.9418945	2142.3400879	2744.8476563
1609	1608.9819336	1589.9819336	2142.3898926	1614.147583
1609.0799561	1609.06189	1590.06189	2142.459961	2280.4821777
1609.12	1609.1018066	1590.1018066	2142.51001	1598.77478
1609.1500244	1609.1318359	1590.1318359	2142.5600586	1199.0810547
1609.1899414	1609.1717529	1590.1717529	2142.6101074	1593.900391
1609.3100586	1609.29187	1590.29187	2142.6899414	3006.6508789
1609.38	1609.3618164	1590.3618164	2142.8	1269.5369873
1609.459961	1609.44165	1590.44165	2142.8601074	2660.5625
1609.5	1609.481689	1590.481689	2142.9099121	1606.4243164
1609.5699463	1609.5516357	1590.5516357	2142.99	1750.8242188
1609.6099854	1609.5916748	1590.5916748	2143.040039	1598.77478
1609.6899414	1609.671631	1590.671631	2143.1	2660.5625
1609.719971	1609.7015381	1590.7015381	2143.1499023	1204.8182373
1609.8	1609.7816162	1590.7816162	2143.219971	2283.9638672
1609.8399658	1609.8215332	1590.8215332	2143.27002	1593.900391
1609.9200439	1609.9016113	1590.9016113	2143.3300781	2664.6245117
1609.9499512	1609.9315186	1590.9315186	2143.3798828	1199.9206543
1610.1099854	1610.091431	1591.091431	2143.52002	2282.2231445
1610.1400146	1610.12146	1591.12146	2143.5700684	1199.0810547
1610.1800537	1610.161499	1591.161499	2143.6201172	1606.4243164
1610.3	1610.2814941	1591.2814941	2143.7	3003.595459
1610.3299561	1610.3114014	1591.3114014	2143.76001	995.1723022
1610.4100342	1610.3913574	1591.3913574	2143.8300781	2283.9638672
1610.4499512	1610.4312744	1591.4312744	2143.8798828	1601.5267334
1610.49	1610.4713135	1591.4713135	2143.9299316	1598.77478
1610.6400146	1610.6213379	1591.6213379	2144.02002	3328.0727539
1610.6800537	1610.6612549	1591.6612549	2144.0700684	1598.77478
1610.790039	1610.77124	1591.77124	2144.1499023	2753.04126
1610.8299561	1610.8111572	1591.8111572	2144.2	1601.5267334
1610.9399414	1610.9211426	1591.9211426	2144.280029	2744.8476563
1611.02002	1611.0010986	1592.0010986	2144.3500977	2283.9638672
1611.1	1611.0810547	1592.0810547	2144.4099121	2671.1623535
1611.13	1611.111084	1592.111084	2144.469971	999.2341919
1611.1700439	1611.151123	1592.151123	2144.52002	1598.77478
1611.209961	1611.19104	1592.19104	2144.5700684	1593.900391
1611.25	1611.231079	1592.231079	2144.6201172	1598.77478
1611.3299561	1611.3109131	1592.3109131	2144.6899414	2288.265381
1611.4	1611.3809814	1592.3809814	2144.75	2331.5463867
1611.4399414	1611.4208984	1592.4208984	2144.8	1601.5267334
1611.47998	1611.4609375	1592.4609375	2144.8500977	1598.77478
1611.52002	1611.5009766	1592.5009766	2144.9	1606.4243164
1611.5899658	1611.5709229	1592.5709229	2144.969971	1994.9866943
1611.63	1611.61084	1592.61084	2145.02002	1598.77478
1611.709961	1611.6907959	1592.6907959	2145.0800781	2660.5625
1611.74	1611.7208252	1592.7208252	2145.1499023	859.4096069
1611.780029	1611.7608643	1592.7608643	2145.2	1598.77478
1611.8199463	1611.8007813	1592.8007813	2145.25	1593.900391
1611.8599854	1611.84082	1592.84082	2145.3	1598.77478
1611.9300537	1611.9108887	1592.9108887	2145.4	1405.6213379
1611.969971	1611.9506836	1592.9506836	2145.4499512	1593.900391
1612.0899658	1612.0706787	1593.0706787	2145.6201172	1409.25
1612.13	1612.1107178	1593.1107178	2145.6699219	1606.4243164
1612.1600342	1612.1407471	1593.1407471	2145.719971	1199.0810547
1612.280029	1612.26062	1593.26062	2145.8898926	1411.22644
1612.3499756	1612.3305664	1593.3305664	2146	1272.2908936
1612.4300537	1612.4106445	1593.4106445	2146.1101074	1453.4315186
1612.469971	1612.4505615	1593.4505615	2146.1599121	1601.5267334
1612.51001	1612.490601	1593.490601	2146.219971	1332.3122559
1612.540039	1612.52063	1593.52063	2146.27002	1199.0810547
1612.6600342	1612.6405029	1593.6405029	2146.4499512	1332.7211914
1612.7	1612.68042	1593.68042	2146.5	1593.900391
1612.77002	1612.7504883	1593.7504883	2146.5700684	2005.2890625
1612.8100586	1612.7905273	1593.7905273	2146.6298828	1337.620239
1612.8499756	1612.8304443	1593.8304443	2146.6799316	1593.900391
1612.9300537	1612.9104	1593.9104	2146.790039	1453.4315186
1613	1612.9803467	1593.9803467	2146.9	1272.2908936
1613.040039	1613.0203857	1594.0203857	2146.9499512	1598.77478
1613.0799561	1613.0603027	1594.0603027	2147.01001	1328.2503662
1613.12	1613.1003418	1594.1003418	2147.0700684	1332.3122559
1613.1500244	1613.1303711	1594.1303711	2147.1201172	1204.8182373
1613.1899414	1613.1702881	1594.1702881	2147.1699219	1601.5267334
1613.22998	1613.2102051	1594.2102051	2147.22998	1332.3122559
1613.3100586	1613.2902832	1594.2902832	2147.3300781	1598.77478
1613.3399658	1613.32019	1594.32019	2147.3798828	1199.9206543
1613.38	1613.360229	1594.360229	2147.4299316	1598.77478
1613.459961	1613.4401855	1594.4401855	2147.540039	1451.2159424
1613.5	1613.4802246	1594.4802246	2147.5900879	1598.77478
1613.5699463	1613.5500488	1594.5500488	2147.6599121	2001.7955322
1613.76001	1613.7401123	1594.7401123	2147.76001	3803.7092285
1613.8	1613.7801514	1594.7801514	2147.8100586	1598.77478
1613.8399658	1613.8200684	1594.8200684	2147.8798828	1142.3859863
1613.99	1613.969971	1594.969971	2148.01001	2304.050293
1614.030029	1614.01001	1595.01001	2148.0600586	1599.2365723
1614.0699463	1614.0499268	1595.0499268	2148.1101074	1594.5142822
1614.1099854	1614.0899658	1595.0899658	2148.1599121	1607.043091
1614.1400146	1614.12	1595.12	2148.209961	1199.5428467
